Time,Phi (degrees),Theta (degrees)
0.0,-0.06549245411680608,-0.0789878182773173
0.021999999999934516,-0.10696511220966635,-0.24256666334109397
0.0340000000001055,-0.15924057155988716,-0.340759834716707
0.05600000000004002,-0.241680041763087,-0.3643421905983487
0.06799999999975626,-0.29895392001988197,-0.43250868275132004
0.09000000000014552,-0.3651809009835629,-0.4873114703180336
0.10199999999986176,-0.434021404294066,-0.5263345841425306
0.12399999999979627,-0.4876445667792127,-0.6014611490248277
0.1459999999997308,-0.5348912045301171,-0.6763271392182106
0.15799999999990177,-0.5925889190606562,-0.7439475275217244
0.1799999999998363,-0.6334013439796851,-0.8388193850411665
0.19200000000000728,-0.6906962593839915,-0.8881528366581057
0.2139999999999418,-0.7478279282297059,-0.9407354334994487
0.22600000000011278,-0.8015855917063817,-0.9989464528515171
0.2480000000000473,-0.8560625143043417,-1.0383389871192712
0.25999999999976353,-0.9028794822482752,-1.0999941052163462
0.2820000000001528,-0.9454505202395284,-1.1807709491494425
0.3040000000000873,-0.9955078005202034,-1.221266682453749
0.31599999999980355,-1.0395615904161168,-1.2820710856488695
0.33799999999973807,-1.0849336227813573,-1.3387177951159064
0.34999999999990905,-1.125483405679732,-1.3718515664395448
0.37199999999984357,-1.175507249327445,-1.422247962775955
0.38400000000001455,-1.2159719379022162,-1.4818020343322407
0.4109979999998359,-1.2656526668816637,-1.5147583193288272
0.42299999999977445,-1.3004224451694248,-1.5774046581349475
0.44499999999970896,-1.343521365735313,-1.6363359594263156
0.45699999999987995,-1.3819152075984988,-1.6787805678499303
0.47899999999981446,-1.4121959046375767,-1.7230788519625648
0.49099999999998545,-1.4426838906753428,-1.7660493703432705
0.51299999999992,-1.4730548109505306,-1.8184922273309145
0.525000000000091,-1.5128793736326764,-1.8527409129601116
0.5470000000000255,-1.5463882990561555,-1.893070166255976
0.56899999999996,-1.5767220449696526,-1.938021507517643
0.581000000000131,-1.6133569312664,-1.9779204831394346
0.6030000000000655,-1.6478508872364113,-2.015810182547807
0.6149999999997817,-1.6777851003744557,-2.0550010062477324
0.6369999999997162,-1.703600153107991,-2.1019693660081527
0.6489999999998872,-1.7313228096518265,-2.1265976928740913
0.6709999999998217,-1.7619732603767018,-2.161244425773808
0.6929999999997563,-1.7858363982919203,-2.2015770450286314
0.7049999999999272,-1.808588059657948,-2.2400087800027864
0.7269999999998618,-1.8360001951912492,-2.274820888735562
0.7390000000000327,-1.8635713935352056,-2.301348749773423
0.7609999999999673,-1.8884826969090325,-2.332004595149329
0.7730000000001382,-1.9170775934803863,-2.353917170481521
0.7950000000000728,-1.9452648228078746,-2.3922135500092767
0.806999999999789,-1.9720067466610098,-2.4301350405530147
0.8289999999997235,-1.9982081597156915,-2.4562899464362395
0.8510000000001128,-2.0162378366852205,-2.4911006384461722
0.862999999999829,-2.0323065347993636,-2.5200984291142055
0.8849999999997635,-2.055085106857635,-2.5562270971536414
0.8969999999999345,-2.077740982585671,-2.585795574485405
0.918999999999869,-2.092094203466299,-2.6220554924326085
0.93100000000004,-2.1081502685879796,-2.6453037185818697
0.9529999999999745,-2.1314011143826823,-2.670351116406953
0.974999999999909,-2.152119459161948,-2.702269286685479
0.98700000000008,-2.17140850999791,-2.7255523166399462
1.0090000000000146,-2.201057109932587,-2.7490820687654653
1.0209999999997308,-2.2284551981521306,-2.7709867095266736
1.04300000000012,-2.2431941024058424,-2.7962162214407544
1.0549999999998363,-2.254000168586703,-2.8179252819897758
1.0769999999997708,-2.273985594928064,-2.843140207753679
1.09900000000016,-2.2879199639923598,-2.8559729427866105
1.1109999999998763,-2.3020231503013036,-2.8876477366402113
1.1329999999998108,-2.323774126555716,-2.8936826699447127
1.1449999999999818,-2.3475444116523376,-2.9140803742332215
1.1669999999999163,-2.3612141291881996,-2.944541568781659
1.1790000000000873,-2.378006177696606,-2.9663012006141205
1.2010000000000218,-2.3911971191825634,-2.9907052202612805
1.212999999999738,-2.4021643486551882,-3.0143537761365633
1.2350000000001273,-2.413318364969635,-3.0376331398385252
1.2570000000000618,-2.428060267751398,-3.0526922036605564
1.268999999999778,-2.450578540151587,-3.0705507733572897
1.2909999999997126,-2.4660365410918135,-3.098859843099097
1.3029999999998836,-2.4803899221064993,-3.1166268829625143
1.324999999999818,-2.485259117937033,-3.1312473061971677
1.336999999999989,-2.498751959585479,-3.1495168942551377
1.3589999999999236,-2.5075846039641903,-3.159705664895298
1.3809999999998581,-2.519592611244404,-3.1746282375832475
1.393000000000029,-2.530322408107018,-3.1906362175412135
1.4149999999999636,-2.542437200400529,-3.2039029186492405
1.4270000000001346,-2.5490085622850107,-3.21163456084502
1.4490000000000691,-2.5667664356256683,-3.2268517959715877
1.4609999999997854,-2.58504183732817,-3.2384388986686603
1.4829999999997199,-2.5845008526086723,-3.264090465973718
1.5050000000001091,-2.6036438741844043,-3.266659170468083
1.5169999999998254,-2.6190180089320916,-3.281507388147595
1.53899999999976,-2.622696347127991,-3.2924553471616265
1.5509999999999309,-2.635352615584559,-3.3049088828625575
1.5729999999998654,-2.6482022271719097,-3.333741513974334
1.5850000000000364,-2.6500459161751753,-3.350521164226612
1.606999999999971,-2.6618500753801633,-3.3561929193711117
1.6190000000001419,-2.6734304648328884,-3.3712217984060797
1.6410000000000764,-2.6776552431598946,-3.391415946610872
1.663000000000011,-2.6864297990473305,-3.405868052209099
1.6749999999997272,-2.6922866623914947,-3.4139096492987147
1.6970000000001164,-2.699083862785351,-3.4299652131756133
1.7089999999998327,-2.711373787471339,-3.4475995254787883
1.7309999999997672,-2.7179436186378263,-3.453694894654832
1.7429999999999382,-2.7200354131442515,-3.4657796907807676
1.7649999999998727,-2.7305796429389586,-3.4688862569811443
1.7869999999998072,-2.689325527832986,-3.620917075035739
1.7989999999999782,-2.627033130990725,-3.8387137608487443
1.8209999999999127,-3.1105953409085387,-2.751610552408011
1.8330000000000837,-3.343659368355977,-1.7937440711369077
1.8550000000000182,-3.1273198351009337,-2.009637674886088
1.8669999999997344,-3.0114185701678853,-2.3364002588043005
1.8890000000001237,-2.890427647213853,-2.7837328512066626
1.9110000000000582,-2.9326802695103136,-2.6965922652047967
1.9229999999997744,-2.9598070774687644,-2.6543605003658306
1.944999999999709,-2.9085197684138366,-2.850523640361285
1.95699999999988,-2.9406682297262643,-2.794019423554104
1.9789999999998145,-2.9348509403854814,-2.808114526340708
1.9909999999999854,-3.0099408331925903,-2.6381062008557485
2.01299999999992,-3.028512101301185,-2.6645824415606945
2.025000000000091,-3.0939877920361543,-2.4939064055684277
2.0470000000000255,-3.118546221103216,-2.4285261943730094
2.06899999999996,-3.107529939807101,-2.4988206840308913
2.081000000000131,-3.11450448733999,-2.5838127204589685
2.1030000000000655,-3.0970810592831426,-2.711976377120339
2.1149999999997817,-3.130051066256966,-2.6404009700171365
2.1369999999997162,-3.1219742559122166,-2.5515881364459623
2.1489999999998872,-3.0900984094012447,-2.6531256264864287
2.1709999999998217,-3.064095447004515,-2.784608947840212
2.1929999999997563,-3.046157242648215,-2.7572713149695964
2.2049999999999272,-3.0624887580585463,-2.336419140986885
2.2269999999998618,-3.115855498749809,-2.3170788570276657
2.2390000000000327,-3.1280385347318362,-2.4081690811326566
2.2609999999999673,-3.006657798502785,-2.612321623727467
2.2730000000001382,-2.9421421158340886,-2.658081892708172
2.2950000000000728,-2.92450851957499,-2.6634998483347765
2.306999999999789,-2.953673862023205,-2.5982090639724382
2.3289999999997235,-2.9410986750037624,-2.570291260864997
2.3510000000001128,-2.9001583437129383,-2.6275621281563724
2.362999999999829,-2.903774306646065,-2.5452083430760037
2.3849999999997635,-2.904352081742194,-2.584111824740895
2.3969999999999345,-2.9013683544969786,-2.6169328006206958
2.4139979999999923,-2.8166662245582548,-2.7054923419222954
2.436000000000149,-2.29739049178741,-3.227492784569086
2.4479999999998654,-2.2270809118459893,-3.399078403174068
2.4699999999998,-1.9846394772639098,-4.094305591444931
2.4919999999997344,-1.7172625043161371,-5.046502643012971
2.5039999999999054,-1.4496859286076071,-5.612149592375466
2.52599999999984,-1.4913310209436776,-5.626955823805724
2.538000000000011,-1.4948202827480128,-5.927655993609534
2.5599999999999454,-1.3687567651280337,-6.780134104339146
2.5720000000001164,-1.3408537343367006,-7.007306372972177
2.594000000000051,-1.52540301989139,-6.851993571825182
2.6159999999999854,-1.9442688467367453,-5.957834912710134
2.6280000000001564,-2.3702617559469026,-6.02511894001743
2.650000000000091,-2.398176850487642,-6.442078706409011
2.661999999999807,-2.507077699700927,-6.276635822108139
2.6839999999997417,-2.514843615156207,-6.929554533813834
2.6959999999999127,-2.3890223826192822,-6.235913444490243
2.717999999999847,-2.167915534108733,-5.0229155334544044
2.7399999999997817,-1.6598749360659533,-2.9306232695807526
2.7519999999999527,-1.214153091360095,-1.8397258766400983
2.7739999999998872,-0.7278657155846633,-0.006571272373215131
2.786000000000058,-0.4986792764286865,-0.32132128559947243
2.8079999999999927,-0.10917108044851517,-2.9328473426280586
2.819999999999709,0.19701508581367183,-3.845709613593723
2.8420000000000982,0.5581435323268432,-5.921441427488494
2.8539999999998145,0.8259422639854118,-6.566743769546192
2.875999999999749,1.3414344422644122,-6.879719504740276
2.8980000000001382,1.7733490564340346,-7.2430296769129745
2.9099999999998545,2.163471929130251,-7.85560696493538
2.931999999999789,3.013352715099033,-8.228439809425145
2.94399999999996,3.5131017424443676,-8.424762824774021
2.9659999999998945,4.694132786281554,-8.712705178284239
2.9780000000000655,5.370989997862507,-8.635147731382283
3.0,6.16183727808214,-8.35161663932675
3.0219999999999345,5.9766230343443825,-8.97131218864577
3.0340000000001055,5.559659277300131,-9.85144899188539
3.05600000000004,4.364890055809173,-10.7038887732018
3.0679999999997563,4.193436191073341,-10.72077899173058
3.0900000000001455,4.217407550420884,-10.12991370405208
3.1019999999998618,4.412459169303097,-9.40023100642113
3.1239999999997963,4.752143790264926,-7.864817339326136
3.1359999999999673,4.603522932856919,-7.353499581067081
3.1579999999999018,4.206788505550021,-8.159927382766238
3.1799999999998363,3.926692178293253,-8.32292996832992
3.1920000000000073,3.789728254407746,-8.463879126577504
3.213999999999942,3.474390215102229,-9.01507670165178
3.2260000000001128,3.4466504388095007,-9.126921432761083
3.2480000000000473,3.474241236820986,-8.957343031354931
3.2599999999997635,3.3725787420533395,-9.148265070541854
3.282000000000153,3.1277572022554616,-9.539088039751945
3.3040000000000873,3.111700740333097,-9.89360915692258
3.3159999999998035,3.178680103513445,-10.074603820507606
3.337999999999738,3.099910126010763,-10.619417726586837
3.349999999999909,3.1581344800872055,-10.447112671790975
3.3719999999998436,3.264181172207514,-10.048254649096585
3.3840000000000146,3.370863991468837,-9.76338148996711
3.405999999999949,3.6058416168113783,-8.779592778801971
3.4279999999998836,3.8039879532169016,-8.3563174082829
3.4400000000000546,3.8084987769862595,-8.477902535310742
3.461999999999989,3.45690639529396,-9.313195303668998
3.47400000000016,3.3954877124401617,-9.517275824244875
3.4960000000000946,3.2505836581739262,-9.940791119444857
3.507999999999811,3.3946909501890707,-9.82921943637769
3.5299999999997453,3.715586299413804,-8.947170935325698
3.5419999999999163,3.863388679877838,-8.623041105415554
3.563999999999851,4.072377037052684,-8.586568537245396
3.5859999999997854,3.991721501970042,-9.70105655890143
3.5979999999999563,3.7656193479270845,-11.107995617918984
3.619999999999891,3.644250492222249,-12.096237443858382
3.632000000000062,3.7283347465409142,-12.198147702076358
3.6539999999999964,4.070758156794294,-11.0931755289606
3.6659999999997126,4.208518745745837,-10.443815146002734
3.688000000000102,4.2953118222031765,-10.131381337063807
3.7100000000000364,4.282926017028314,-9.765268066316645
3.7219999999997526,4.192907344487468,-9.952504139129898
3.744000000000142,4.040493517354539,-10.69038266912772
3.755999999999858,4.343889760608043,-10.159123233914679
3.7779999999997926,5.063812011513761,-6.74969106288571
3.7899999999999636,5.422375960240725,-5.297256728249688
3.811999999999898,5.596053296386221,-4.285199369741732
3.8339999999998327,5.407745916838381,-5.534487502114467
3.8460000000000036,5.146972341825124,-7.703181064730127
3.867999999999938,4.7288686127011,-10.53820268981045
3.880000000000109,4.828035318241463,-10.65522228277089
3.9020000000000437,5.2806177224197395,-9.61750210729541
3.91399999999976,5.4873664599624865,-9.054207314839053
3.936000000000149,5.80439189833943,-8.159389355187225
3.9479999999998654,5.948390681371458,-7.8070972161496
3.9699999999998,6.093237846387155,-7.664831461540544
3.9919999999997344,6.174515785085332,-8.040897621091409
4.003999999999905,6.2955669397626535,-7.707241493545356
4.02599999999984,6.424720453235677,-7.47921290552713
4.038000000000011,6.450163954954433,-7.541834747848163
4.059999999999945,6.256917735917037,-7.86109486866052
4.072000000000116,6.215329633685902,-7.86863978467254
4.094000000000051,6.177975523157639,-8.609624897960419
4.1159999999999854,5.878935870727889,-9.161063827643883
4.128000000000156,5.680267885002357,-9.271516582591486
4.150000000000091,5.711473098844182,-8.906631984863813
4.161999999999807,5.664789033096403,-8.78583982060346
4.183999999999742,5.414959823478008,-8.777766176566441
4.195999999999913,5.300887852943238,-8.565081140659768
4.217999999999847,5.205459969014623,-8.438104445534103
4.239999999999782,5.143650069797899,-9.12133929951293
4.251999999999953,5.092113769486223,-9.649388829508338
4.273999999999887,5.063844726570007,-10.612621066920381
4.286000000000058,5.129776357954348,-10.6102683163087
4.307999999999993,5.06217454096552,-10.444576697123404
4.319999999999709,4.956468782420549,-10.42770988033867
4.342000000000098,4.79467744351474,-9.708767573315455
4.3539999999998145,4.798572699322383,-9.529855824397742
4.375999999999749,4.843861404624649,-9.802567310734542
4.398000000000138,4.895507793566886,-10.117806005146553
4.414997999999741,4.948450076824264,-10.313357020948214
4.427000000000135,4.950921028318565,-10.730642846725424
4.449000000000069,4.923480384956954,-11.149603062577897
4.460999999999785,4.885085795829951,-11.387495483033584
4.48299999999972,4.59614296851145,-12.030891723202336
4.494999999999891,4.388244088723008,-12.384035170269819
4.516999999999825,4.430696694646662,-12.22177189809733
4.53899999999976,4.756456545251589,-11.758038910691488
4.550999999999931,4.875878934560842,-11.760579791253972
4.572999999999865,5.084418874603917,-11.682043609084133
4.585000000000036,5.100313303459754,-11.934704794536295
4.606999999999971,5.154880428207688,-12.420010876973482
4.619000000000142,5.199244242948089,-12.821060440149669
4.641000000000076,5.457109532371939,-12.990177908086979
4.663000000000011,5.833863105752605,-12.6107510920582
4.674999999999727,5.937576609253971,-12.378311395071156
4.697000000000116,6.052850052485439,-12.122412021333156
4.708999999999833,6.1028126470273145,-11.915624644293228
4.730999999999767,6.242253144755157,-11.609573212848629
4.742999999999938,6.279590265882487,-11.314735255153769
4.764999999999873,6.521918301306543,-10.313546362680503
4.786999999999807,6.826588218278646,-8.511520339253698
4.798999999999978,7.012674685109911,-7.369475695163313
4.820999999999913,7.12706931193476,-5.714768734976722
4.833000000000084,7.188743000332179,-5.7306644587700815
4.855000000000018,7.0427532842853715,-7.230445699395412
4.866999999999734,6.996901372875058,-7.682479782054618
4.889000000000124,7.062653386494619,-7.7435027250737045
4.90099999999984,7.144897870647189,-7.529064850105809
4.9229999999997744,7.5277414156860685,-6.722388485767202
4.944999999999709,7.901606073040605,-5.8670295215703065
4.95699999999988,7.972619369620007,-5.698673938068952
4.9789999999998145,8.000372384675067,-5.8013449854237935
4.9909999999999854,8.037269796111868,-6.159028268372224
5.01299999999992,8.015127838781481,-7.1197419015491485
5.025000000000091,8.160146085186215,-7.149848582704713
5.0470000000000255,8.704735102120424,-6.7397814882781315
5.06899999999996,9.144028793973153,-6.271211707989484
5.081000000000131,9.302556556596496,-6.17513605210568
5.1030000000000655,9.496960483408214,-5.89024663154765
5.114999999999782,9.589582273879488,-5.909051102304782
5.136999999999716,9.7652400473144,-5.805264762225269
5.148999999999887,9.952185424545737,-5.655589200346872
5.170999999999822,10.237889857306808,-5.50607564263292
5.192999999999756,10.435317814468448,-5.7173949356309475
5.204999999999927,10.519144740295049,-5.698446949883764
5.226999999999862,10.626520883973834,-5.649882091408985
5.239000000000033,10.67717281730473,-5.583327498047113
5.260999999999967,10.85338834415604,-4.582380729496109
5.273000000000138,10.847234326033334,-3.6648578111699592
5.295000000000073,10.91726498294366,-2.282781786733014
5.306999999999789,11.016841276862836,-1.7430856722931083
5.3289999999997235,10.999896766338924,-1.9613419806249706
5.351000000000113,11.076484984852511,-2.7867591726847443
5.362999999999829,11.21165915565605,-2.94864850556814
5.3849999999997635,11.720139378377764,-2.140478375198358
5.3969999999999345,11.996101846476481,-1.69534696417242
5.418999999999869,12.379159516863927,-0.9902205950361531
5.43100000000004,12.576526541092816,-0.9243040293899176
5.4529999999999745,12.956509122553841,-1.2655465807695838
5.474999999999909,13.414371879948503,-1.2711776321781625
5.48700000000008,13.685361529451255,-1.2581749975660441
5.5090000000000146,14.107384173375928,-1.3984473038863323
5.520999999999731,14.340692453675553,-1.3770487796251687
5.54300000000012,14.59586397780015,-1.7983440017348338
5.554999999999836,14.744941749035558,-1.9349023843522486
5.576999999999771,15.100058717590745,-2.752346127702218
5.588999999999942,15.24257144297891,-3.034640034715618
5.610999999999876,15.420139827548292,-3.212498129558733
5.632999999999811,15.560995149717375,-2.7529478380305683
5.644999999999982,15.662265359480658,-2.4642098156124113
5.666999999999916,15.725834209547948,-2.290466595708244
5.679000000000087,15.72944304576009,-2.365943738302025
5.701000000000022,15.828470314336192,-2.5567822712911283
5.712999999999738,15.884039048887997,-2.525425708712564
5.735000000000127,16.317809737361493,-1.7601283739589477
5.757000000000062,16.78552102115252,-0.966409948392237
5.768999999999778,16.975246290779662,-0.8225523371844581
5.790999999999713,17.217289428588003,-0.7222105102384153
5.802999999999884,17.383487821326298,-0.9348969740025457
5.824999999999818,17.588742649023796,-1.424273056446819
5.836999999999989,17.70752245830492,-1.3139708537969972
5.858999999999924,18.020241937899225,-0.7947245910787136
5.880999999999858,18.269528761210445,-0.14396154952995785
5.893000000000029,18.332215115911126,0.04726520517304997
5.914999999999964,18.30387385098555,0.7880595415680182
5.927000000000135,18.242687809328448,1.0245959218547311
5.949000000000069,18.139274491186974,1.0677110856257908
5.960999999999785,18.04335175431217,0.9590454065503883
5.98299999999972,18.003261047929605,0.9350276085032104
5.994999999999891,17.944764830147633,0.752184113196286
6.016999999999825,17.948916262733654,0.14353471191535633
6.03899999999976,18.004541539168002,-0.7789566321062072
6.050999999999931,18.132272900954675,-0.8625504944892116
6.072999999999865,18.350000514976358,-0.49324958152372994
